     5.0000        0.05871
     5.0200        0.11069
     5.0400        0.18469
     5.0600        0.20909
     5.0800        0.27329
     5.1000        0.16009
     5.1200        0.05809
     5.1400        0.08748
     5.1600        0.10649
     5.1800        0.18170
     5.2000        0.07912
     5.2200        0.01007
     5.2400        0.00995
     5.2600        0.05424
     5.2800        0.06462
     5.3000        0.01279
     5.3200        0.10141
     5.3400        0.13922
     5.3600        0.15164
     5.3800        0.19265
     5.4000        0.19346
     5.4200        0.17068
     5.4400        0.16349
     5.4600        0.14611
     5.4800        0.06472
     5.5000        0.01774
     5.5200        0.04105
     5.5400        0.00257
     5.5600        0.07038
     5.5800        0.07759
     5.6000        0.11261
     5.6200        0.14182
     5.6400        0.11604
     5.6600        0.12985
     5.6800        0.19347
     5.7000        0.20808
     5.7200        0.20850
     5.7400        0.20251
     5.7600        0.18553
     5.7800        0.18054
     5.8000        0.17155
     5.8200        0.15397
     5.8400        0.15918
     5.8600        0.17080
     5.8800        0.17581
     5.9000        0.17043
     5.9200        0.14044
     5.9400        0.17366
     5.9600        0.22247
     5.9800        0.20509
     6.0000        0.09410
     6.0200        0.00371
     6.0400        0.02467
     6.0600        0.06246
     6.0800        0.03944
     6.1000        0.03557
     6.1200        0.05599
     6.1400        0.05720
     6.1600        0.08342
     6.1800        0.10123
     6.2000        0.09904
     6.2200        0.05866
     6.2400        0.07487
     6.2600        0.13809
     6.2800        0.23450
     6.3000        0.28172
     6.3200        0.32373
     6.3400        0.34115
     6.3600        0.30896
     6.3800        0.24658
     6.4000        0.19919
     6.4200        0.13320
     6.4400        0.06222
     6.4600        0.06063
     6.4800        0.09185
     6.5000        0.13026
     6.5200        0.17868
     6.5400        0.20149
     6.5600        0.15011
     6.5800        0.14032
     6.6000        0.16313
     6.6200        0.10055
     6.6400        0.02096
     6.6600        0.05482
     6.6800        0.11621
     6.7000        0.11539
     6.7200        0.11678
     6.7400        0.13596
     6.7600        0.13275
     6.7800        0.10354
     6.8000        0.09252
     6.8200        0.00811
     6.8400        0.09351
     6.8600        0.12472
     6.8800        0.12334
     6.9000        0.13875
     6.9200        0.17457
     6.9400        0.23998
     6.9600        0.28180
     6.9800        0.25821
     7.0000        0.19862
     7.0200        0.17504
     7.0400        0.20385
     7.0600        0.31447
     7.0800        0.33868
     7.1000        0.31610
     7.1200        0.25831
     7.1400        0.20453
     7.1600        0.20154
     7.1800        0.16316
     7.2000        0.14617
     7.2200        0.10818
     7.2400        0.06000
     7.2600        0.04421
     7.2800        0.01183
     7.3000        0.01744
     7.3200        0.00166
     7.3400        0.02927
     7.3600        0.05929
     7.3800        0.06570
     7.4000        0.06371
     7.4200        0.06093
     7.4400        0.09894
     7.4600        0.16596
     7.4800        0.25277
     7.5000        0.28099
     7.5200        0.24300
     7.5400        0.22962
     7.5600        0.28943
     7.5800        0.32465
     7.6000        0.34366
     7.6200        0.30027
     7.6400        0.24369
     7.6600        0.21230
     7.6800        0.15012
     7.7000        0.08793
     7.7200        0.01635
     7.7400        0.05684
     7.7600        0.18302
     7.7800        0.24001
     7.8000        0.23980
     7.8200        0.22278
     7.8400        0.14857
     7.8600        0.11215
     7.8800        0.08674
     7.9000        0.06372
     7.9200        0.00891
     7.9400        0.04591
     7.9600        0.10032
     7.9800        0.12074
     8.0000        0.15195
     8.0200        0.20956
     8.0400        0.26758
     8.0600        0.28139
     8.0800        0.29341
     8.1000        0.30262
     8.1200        0.27784
     8.1400        0.24125
     8.1600        0.21407
     8.1800        0.18348
     8.2000        0.20609
     8.2200        0.27031
     8.2400        0.27992
     8.2600        0.23334
     8.2800        0.18135
     8.3000        0.11097
     8.3200        0.03338
     8.3400        0.01820
     8.3600        0.07080
     8.3800        0.11457
     8.4000        0.11255
     8.4200        0.09892
     8.4400        0.07969
     8.4600        0.08227
     8.4800        0.13944
     8.5000        0.18781
     8.5200        0.15999
     8.5400        0.10916
     8.5600        0.10153
     8.5800        0.07911
     8.6000        0.08888
     8.6200        0.10265
     8.6400        0.10023
     8.6600        0.08740
     8.6800        0.04957
     8.7000        0.07875
     8.7200        0.10732
     8.7400        0.12809
     8.7600        0.18707
     8.7800        0.18764
     8.8000        0.15201
     8.8200        0.12219
     8.8400        0.08036
     8.8600        0.05113
     8.8800        0.01909
     8.9000        0.09812
     8.9200        0.10555
     8.9400        0.08097
     8.9600        0.09420
     8.9800        0.10303
     9.0000        0.11145
     9.0200        0.11088
     9.0400        0.06011
     9.0600        0.01687
     9.0800        0.05384
     9.1000        0.09021
     9.1200        0.05599
     9.1400        0.00944
     9.1600        0.05907
     9.1800        0.08349
     9.2000        0.07092
     9.2200        0.03715
     9.2400        0.02663
     9.2600        0.03620
     9.2800        0.04003
     9.3000        0.10465
     9.3200        0.15168
     9.3400        0.22651
     9.3600        0.30194
     9.3800        0.33116
     9.4000        0.32319
     9.4200        0.25501
     9.4400        0.18444
     9.4600        0.12227
     9.4800        0.05130
     9.5000        0.03272
     9.5200        0.06235
     9.5400        0.10898
     9.5600        0.14840
     9.5800        0.10563
     9.6000        0.09006
     9.6200        0.05137
     9.6400        0.00587
     9.6600        0.01138
     9.6800        0.02731
     9.7000        0.11061
     9.7200        0.14090
     9.7400        0.13920
     9.7600        0.10249
     9.7800        0.04198
     9.8000        0.00488
     9.8200        0.05663
     9.8400        0.05134
     9.8600        0.03524
     9.8800        0.06915
     9.9000        0.05286
     9.9200        0.07136
     9.9400        0.14587
     9.9600        0.18098
     9.9800        0.19868
    10.0000        0.20299
    10.0200        0.18490
    10.0400        0.14180
    10.0600        0.12991
    10.0800        0.14162
    10.1000        0.16432
    10.1200        0.18043
    10.1400        0.19754
    10.1600        0.16084
    10.1800        0.12635
    10.2000        0.11766
    10.2200        0.11816
    10.2400        0.16107
    10.2600        0.21178
    10.2800        0.27848
    10.3000        0.30899
    10.3200        0.30390
    10.3400        0.27560
    10.3600        0.27291
    10.3800        0.33662
    10.4000        0.40632
    10.4200        0.40163
    10.4400        0.39433
    10.4600        0.34924
    10.4800        0.31315
    10.5000        0.33625
    10.5200        0.33796
    10.5400        0.26307
    10.5600        0.22037
    10.5800        0.21128
    10.6000        0.22839
    10.6200        0.29969
    10.6400        0.38140
    10.6600        0.42271
    10.6800        0.45141
    10.7000        0.46152
    10.7200        0.49683
    10.7400        0.52753
    10.7600        0.57124
    10.7800        0.63495
    10.8000        0.74725
    10.8200        0.87516
    10.8400        0.93747
    10.8600        0.95637
    10.8800        0.96068
    10.9000        0.96579
    10.9200        1.03949
    10.9400        1.11280
    10.9600        1.17611
    10.9800        1.23801
    11.0000        1.31832
    11.0200        1.46003
    11.0400        1.59373
    11.0600        1.69344
    11.0800        1.79774
    11.1000        1.91265
    11.1200        2.03396
    11.1400        2.13626
    11.1600        2.28057
    11.1800        2.40288
    11.2000        2.49678
    11.2200        2.56569
    11.2400        2.66080
    11.2600        2.80510
    11.2800        2.97241
    11.3000        3.03552
    11.3200        3.05462
    11.3400        3.11513
    11.3600        3.18844
    11.3800        3.22034
    11.4000        3.25985
    11.4200        3.21376
    11.4400        3.14786
    11.4600        3.16957
    11.4800        3.19188
    11.5000        3.22038
    11.5200        3.20289
    11.5400        3.17080
    11.5600        3.13690
    11.5800        3.09061
    11.6000        2.98532
    11.6200        2.90242
    11.6400        2.84433
    11.6600        2.72603
    11.6800        2.59874
    11.7000        2.55125
    11.7200        2.50595
    11.7400        2.41346
    11.7600        2.36897
    11.7800        2.32647
    11.8000        2.27138
    11.8200        2.26989
    11.8400        2.28739
    11.8600        2.27650
    11.8800        2.27221
    11.9000        2.26671
    11.9200        2.27522
    11.9400        2.29753
    11.9600        2.32483
    11.9800        2.40194
    12.0000        2.42225
    12.0200        2.46575
    12.0400        2.52286
    12.0600        2.59217
    12.0800        2.68127
    12.1000        2.73858
    12.1200        2.74409
    12.1400        2.76519
    12.1600        2.81330
    12.1800        2.86461
    12.2000        2.91931
    12.2200        2.96802
    12.2400        3.01993
    12.2600        3.05603
    12.2800        3.11714
    12.3000        3.18985
    12.3200        3.28355
    12.3400        3.37806
    12.3600        3.40936
    12.3800        3.38727
    12.4000        3.36918
    12.4200        3.32188
    12.4400        3.30379
    12.4600        3.31650
    12.4800        3.31260
    12.5000        3.36571
    12.5200        3.44822
    12.5400        3.55812
    12.5600        3.66063
    12.5800        3.74654
    12.6000        3.77744
    12.6200        3.79755
    12.6400        3.79466
    12.6600        3.80896
    12.6800        3.84987
    12.7000        3.82398
    12.7200        3.72028
    12.7400        3.59579
    12.7600        3.49030
    12.7800        3.38760
    12.8000        3.27491
    12.8200        3.21542
    12.8400        3.08372
    12.8600        2.99103
    12.8800        2.91314
    12.9000        2.80244
    12.9200        2.69075
    12.9400        2.61486
    12.9600        2.52976
    12.9800        2.41147
    13.0000        2.34998
    13.0200        2.30608
    13.0400        2.23899
    13.0600        2.19069
    13.0800        2.10280
    13.1000        2.05091
    13.1200        1.98281
    13.1400        1.92392
    13.1600        1.85943
    13.1800        1.84593
    13.2000        1.88304
    13.2200        1.88555
    13.2400        1.86145
    13.2600        1.78476
    13.2800        1.73107
    13.3000        1.70617
    13.3200        1.74208
    13.3400        1.71139
    13.3600        1.70009
    13.3800        1.75760
    13.4000        1.76131
    13.4200        1.79181
    13.4400        1.81852
    13.4600        1.80503
    13.4800        1.77213
    13.5000        1.73184
    13.5200        1.73175
    13.5400        1.69485
    13.5600        1.63036
    13.5800        1.59286
    13.6000        1.56417
    13.6200        1.56648
    13.6400        1.63098
    13.6600        1.69789
    13.6800        1.75240
    13.7000        1.79770
    13.7200        1.84341
    13.7400        1.95272
    13.7600        2.01542
    13.7800        2.05193
    13.8000        2.12764
    13.8200        2.16314
    13.8400        2.21365
    13.8600        2.30396
    13.8800        2.37986
    13.9000        2.37877
    13.9200        2.38568
    13.9400        2.39138
    13.9600        2.42009
    13.9800        2.46460
    14.0000        2.52170
    14.0200        2.56661
    14.0400        2.53832
    14.0600        2.50062
    14.0800        2.46733
    14.1000        2.41804
    14.1200        2.30634
    14.1400        2.18225
    14.1600        2.07756
    14.1800        1.95886
    14.2000        1.85537
    14.2200        1.76547
    14.2400        1.64498
    14.2600        1.50709
    14.2800        1.40580
    14.3000        1.30930
    14.3200        1.21421
    14.3400        1.12831
    14.3600        1.04742
    14.3800        0.93133
    14.4000        0.83343
    14.4200        0.83554
    14.4400        0.83005
    14.4600        0.78735
    14.4800        0.75046
    14.5000        0.67717
    14.5200        0.62147
    14.5400        0.61218
    14.5600        0.58449
    14.5800        0.57099
    14.6000        0.52790
    14.6200        0.50041
    14.6400        0.48671
    14.6600        0.46702
    14.6800        0.41293
    14.7000        0.33823
    14.7200        0.24914
    14.7400        0.22365
    14.7600        0.21455
    14.7800        0.19706
    14.8000        0.17877
    14.8200        0.20387
    14.8400        0.23918
    14.8600        0.23769
    14.8800        0.21959
    14.9000        0.26190
    14.9200        0.30461
    14.9400        0.32131
    14.9600        0.34322
    14.9800        0.30333
    15.0000        0.23323
    15.0200        0.18154
    15.0400        0.10064
    15.0600        0.08515
    15.0800        0.09346
    15.1000        0.04216
    15.1200        0.06267
    15.1400        0.07618
    15.1600        0.04797
    15.1800        0.06755
    15.2000        0.08573
    15.2200        0.09052
    15.2400        0.10270
    15.2600        0.13548
    15.2800        0.20846
    15.3000        0.27145
    15.3200        0.27863
    15.3400        0.29241
    15.3600        0.25660
    15.3800        0.19578
    15.4000        0.18096
    15.4200        0.21494
    15.4400        0.27773
    15.4600        0.27831
    15.4800        0.23969
    15.5000        0.16408
    15.5200        0.07246
    15.5400        0.03124
    15.5600        0.02382
    15.5800        0.03781
    15.6000        0.04639
    15.6200        0.05468
    15.6400        0.06098
    15.6600        0.05649
    15.6800        0.06119
    15.7000        0.07010
    15.7200        0.07380
    15.7400        0.06951
    15.7600        0.04421
    15.7800        0.02991
    15.8000        0.03502
    15.8200        0.03452
    15.8400        0.07103
    15.8600        0.06073
    15.8800        0.08044
    15.9000        0.09794
    15.9200        0.08425
    15.9400        0.08295
    15.9600        0.12705
    15.9800        0.13616
    16.0000        0.14906
    16.0200        0.19437
    16.0400        0.19607
    16.0600        0.18778
    16.0800        0.20128
    16.1000        0.22498
    16.1200        0.24549
    16.1400        0.26959
    16.1600        0.31250
    16.1800        0.35360
    16.2000        0.40391
    16.2200        0.51681
    16.2400        0.61072
    16.2600        0.63522
    16.2800        0.63492
    16.3000        0.62783
    16.3200        0.65113
    16.3400        0.67224
    16.3600        0.69174
    16.3800        0.71345
    16.4000        0.69075
    16.4200        0.66845
    16.4400        0.67596
    16.4600        0.62826
    16.4800        0.60117
    16.5000        0.59887
    16.5200        0.57318
    16.5400        0.54928
    16.5600        0.54799
    16.5800        0.55949
    16.6000        0.54679
    16.6200        0.52590
    16.6400        0.52980
    16.6600        0.53451
    16.6800        0.46141
    16.7000        0.45972
    16.7200        0.47982
    16.7400        0.47672
    16.7600        0.51723
    16.7800        0.57753
    16.8000        0.57464
    16.8200        0.58674
    16.8400        0.58625
    16.8600        0.52995
    16.8800        0.50766
    16.9000        0.52116
    16.9200        0.50866
    16.9400        0.45137
    16.9600        0.41187
    16.9800        0.39338
    17.0000        0.36408
    17.0200        0.35619
    17.0400        0.38069
    17.0600        0.37479
    17.0800        0.32830
    17.1000        0.25900
    17.1200        0.24371
    17.1400        0.25941
    17.1600        0.33432
    17.1800        0.44042
    17.2000        0.52393
    17.2200        0.49343
    17.2400        0.43073
    17.2600        0.43164
    17.2800        0.48074
    17.3000        0.60605
    17.3200        0.68655
    17.3400        0.73766
    17.3600        0.77296
    17.3800        0.81647
    17.4000        0.90177
    17.4200        0.96887
    17.4400        0.95518
    17.4600        0.93528
    17.4800        0.97999
    17.5000        1.10229
    17.5200        1.26100
    17.5400        1.40150
    17.5600        1.53740
    17.5800        1.68951
    17.6000        1.79121
    17.6200        1.87752
    17.6400        1.97182
    17.6600        2.00053
    17.6800        2.08483
    17.7000        2.20474
    17.7200        2.27404
    17.7400        2.32054
    17.7600        2.39485
    17.7800        2.49495
    17.8000        2.55626
    17.8200        2.65796
    17.8400        2.78927
    17.8600        2.90117
    17.8800        2.96027
    17.9000        3.01218
    17.9200        3.02208
    17.9400        2.98339
    17.9600        2.94269
    17.9800        2.87620
    18.0000        2.79770
    18.0200        2.75941
    18.0400        2.72791
    18.0600        2.69661
    18.0800        2.63392
    18.1000        2.58002
    18.1200        2.53533
    18.1400        2.50143
    18.1600        2.43834
    18.1800        2.40324
    18.2000        2.33514
    18.2200        2.22145
    18.2400        2.06775
    18.2600        1.90606
    18.2800        1.75636
    18.3000        1.61207
    18.3200        1.50037
    18.3400        1.43728
    18.3600        1.41998
    18.3800        1.46828
    18.4000        1.50639
    18.4200        1.51649
    18.4400        1.52920
    18.4600        1.54170
    18.4800        1.47421
    18.5000        1.42531
    18.5200        1.36401
    18.5400        1.27072
    18.5600        1.25962
    18.5800        1.27873
    18.6000        1.24763
    18.6200        1.19854
    18.6400        1.16444
    18.6600        1.14875
    18.6800        1.12985
    18.7000        1.12835
    18.7200        1.19086
    18.7400        1.25836
    18.7600        1.29867
    18.7800        1.31477
    18.8000        1.28268
    18.8200        1.19698
    18.8400        1.12228
    18.8600        1.10339
    18.8800        1.08589
    18.9000        1.08400
    18.9200        1.12170
    18.9400        1.16141
    18.9600        1.15011
    18.9800        1.15102
    19.0000        1.12852
    19.0200        1.11062
    19.0400        1.15013
    19.0600        1.19323
    19.0800        1.19614
    19.1000        1.20904
    19.1200        1.18895
    19.1400        1.18085
    19.1600        1.19815
    19.1800        1.18486
    19.2000        1.17816
    19.2200        1.24667
    19.2400        1.27837
    19.2600        1.25608
    19.2800        1.23398
    19.3000        1.15329
    19.3200        1.11519
    19.3400        1.08409
    19.3600        1.05780
    19.3800        1.07010
    19.4000        1.05801
    19.4200        1.05071
    19.4400        1.03142
    19.4600        1.03352
    19.4800        1.04703
    19.5000        1.03033
    19.5200        1.00563
    19.5400        1.01954
    19.5600        1.06004
    19.5800        1.08575
    19.6000        1.10605
    19.6200        1.11136
    19.6400        1.13466
    19.6600        1.14576
    19.6800        1.10867
    19.7000        1.04397
    19.7200        0.98308
    19.7400        0.93258
    19.7600        0.91189
    19.7800        0.90859
    19.8000        0.86449
    19.8200        0.82960
    19.8400        0.79090
    19.8600        0.76741
    19.8800        0.72191
    19.9000        0.68082
    19.9200        0.65692
    19.9400        0.59863
    19.9600        0.55233
    19.9800        0.47023
    20.0000        0.39034
    20.0200        0.35944
    20.0400        0.35615
    20.0600        0.38865
    20.0800        0.42496
    20.1000        0.50106
    20.1200        0.54397
    20.1400        0.58127
    20.1600        0.62117
    20.1800        0.59328
    20.2000        0.57658
    20.2200        0.56069
    20.2400        0.53839
    20.2600        0.48830
    20.2800        0.45380
    20.3000        0.43310
    20.3200        0.40561
    20.3400        0.42671
    20.3600        0.44582
    20.3800        0.43792
    20.4000        0.41863
    20.4200        0.37993
    20.4400        0.34724
    20.4600        0.33214
    20.4800        0.31144
    20.5000        0.29875
    20.5200        0.29965
    20.5400        0.33056
    20.5600        0.34546
    20.5800        0.37057
    20.6000        0.36167
    20.6200        0.35977
    20.6400        0.38188
    20.6600        0.39338
    20.6800        0.39589
    20.7000        0.39639
    20.7200        0.40030
    20.7400        0.43200
    20.7600        0.44971
    20.7800        0.49841
    20.8000        0.55812
    20.8200        0.62702
    20.8400        0.66252
    20.8600        0.67923
    20.8800        0.69713
    20.9000        0.69984
    20.9200        0.71274
    20.9400        0.72804
    20.9600        0.74435
    20.9800        0.79305
    21.0000        0.88536
    21.0200        0.98206
    21.0400        1.08237
    21.0600        1.14827
    21.0800        1.24418
    21.1000        1.36228
    21.1200        1.49158
    21.1400        1.64609
    21.1600        1.76279
    21.1800        1.80290
    21.2000        1.85180
    21.2200        1.89471
    21.2400        1.99541
    21.2600        2.13651
    21.2800        2.24262
    21.3000        2.33392
    21.3200        2.38383
    21.3400        2.41993
    21.3600        2.48604
    21.3800        2.55574
    21.4000        2.63004
    21.4200        2.73515
    21.4400        2.74245
    21.4600        2.74016
    21.4800        2.69806
    21.5000        2.65817
    21.5200        2.65047
    21.5400        2.65398
    21.5600        2.63488
    21.5800        2.59079
    21.6000        2.50929
    21.6200        2.44779
    21.6400        2.42790
    21.6600        2.44600
    21.6800        2.42331
    21.7000        2.35541
    21.7200        2.24132
    21.7400        2.11262
    21.7600        2.03172
    21.7800        1.93903
    21.8000        1.87813
    21.8200        1.82004
    21.8400        1.75514
    21.8600        1.69005
    21.8800        1.56995
    21.9000        1.46206
    21.9200        1.34176
    21.9400        1.27086
    21.9600        1.20057
    21.9800        1.11807
    22.0000        1.07458
    22.0200        1.00848
    22.0400        0.92979
    22.0600        0.86569
    22.0800        0.76419
    22.1000        0.71630
    22.1200        0.72020
    22.1400        0.72431
    22.1600        0.70661
    22.1800        0.68032
    22.2000        0.62622
    22.2200        0.56693
    22.2400        0.55043
    22.2600        0.51833
    22.2800        0.51104
    22.3000        0.52154
    22.3200        0.53265
    22.3400        0.57155
    22.3600        0.53446
    22.3800        0.48596
    22.4000        0.44026
    22.4200        0.42337
    22.4400        0.44107
    22.4600        0.49378
    22.4800        0.54208
    22.5000        0.55579
    22.5200        0.55229
    22.5400        0.53519
    22.5600        0.50950
    22.5800        0.47100
    22.6000        0.41011
    22.6200        0.36941
    22.6400        0.37892
    22.6600        0.35382
    22.6800        0.31833
    22.7000        0.26223
    22.7200        0.22993
    22.7400        0.26924
    22.7600        0.26774
    22.7800        0.25745
    22.8000        0.22815
    22.8200        0.23486
    22.8400        0.22156
    22.8600        0.15767
    22.8800        0.12597
    22.9000        0.07487
    22.9200        0.05238
    22.9400        0.05848
    22.9600        0.03679
    22.9800        0.02229
    23.0000        0.01260
    23.0200        0.01450
    23.0400        0.04111
    23.0600        0.04936
    23.0800        0.07100
    23.1000        0.07305
    23.1200        0.06029
    23.1400        0.07214
    23.1600        0.07119
    23.1800        0.05803
    23.2000        0.07088
    23.2200        0.09432
    23.2400        0.09657
    23.2600        0.09181
    23.2800        0.11326
    23.3000        0.14410
    23.3200        0.18235
    23.3400        0.21420
    23.3600        0.21264
    23.3800        0.17489
    23.4000        0.13493
    23.4200        0.11458
    23.4400        0.09023
    23.4600        0.08567
    23.4800        0.09772
    23.5000        0.13336
    23.5200        0.15761
    23.5400        0.17085
    23.5600        0.15190
    23.5800        0.12810
    23.6000        0.10475
    23.6200        0.01200
    23.6400        0.03295
    23.6600        0.05350
    23.6800        0.03045
    23.7000        0.00360
    23.7200        0.03185
    23.7400        0.03129
    23.7600        0.00766
    23.7800        0.01619
    23.8000        0.08024
    23.8200        0.12749
    23.8400        0.20214
    23.8600        0.30539
    23.8800        0.35584
    23.9000        0.33909
    23.9200        0.33634
    23.9400        0.33399
    23.9600        0.36244
    23.9800        0.37709
    24.0000        0.35394
    24.0200        0.26699
    24.0400        0.20904
    24.0600        0.17449
    24.0800        0.19234
    24.1000        0.22139
    24.1200        0.19564
    24.1400        0.19169
    24.1600        0.15234
    24.1800        0.05919
    24.2000        0.00863
    24.2200        0.00308
    24.2400        0.02787
    24.2600        0.01842
    24.2800        0.01057
    24.3000        0.00628
    24.3200        0.04613
    24.3400        0.09698
    24.3600        0.12123
    24.3800        0.14988
    24.4000        0.16893
    24.4200        0.17738
    24.4400        0.20803
    24.4600        0.23028
    24.4800        0.23533
    24.5000        0.19238
    24.5200        0.10103
    24.5400        0.04308
    24.5600        0.01527
    24.5800        0.05482
    24.6000        0.06277
    24.6200        0.06852
    24.6400        0.05748
    24.6600        0.02187
    24.6800        0.03569
    24.7000        0.11445
    24.7200        0.14782
    24.7400        0.17739
    24.7600        0.18155
    24.7800        0.20411
    24.8000        0.22628
    24.8200        0.21425
    24.8400        0.21181
    24.8600        0.17010
    24.8800        0.11607
    24.9000        0.08665
    24.9200        0.10723
    24.9400        0.12580
    24.9600        0.17278
    24.9800        0.18936
    25.0000        0.17034
    25.0200        0.19592
    25.0400        0.19229
    25.0600        0.19027
    25.0800        0.18985
    25.1000        0.21183
    25.1200        0.23140
    25.1400        0.19498
    25.1600        0.13836
    25.1800        0.11394
    25.2000        0.11391
    25.2200        0.14309
    25.2400        0.11367
    25.2600        0.07344
    25.2800        0.03282
    25.3000        0.03420
    25.3200        0.03462
    25.3400        0.03885
    25.3600        0.06647
    25.3800        0.07429
    25.4000        0.10892
    25.4200        0.18434
    25.4400        0.24456
    25.4600        0.29318
    25.4800        0.30595
    25.5000        0.30584
    25.5200        0.32652
    25.5400        0.35681
    25.5600        0.31849
    25.5800        0.30798
    25.6000        0.29766
    25.6200        0.24855
    25.6400        0.22584
    25.6600        0.21072
    25.6800        0.24400
    25.7000        0.26189
    25.7200        0.26018
    25.7400        0.22886
    25.7600        0.20015
    25.7800        0.18224
    25.8000        0.17692
    25.8200        0.16120
    25.8400        0.14249
    25.8600        0.13358
    25.8800        0.11806
    25.9000        0.10955
    25.9200        0.06123
    25.9400        0.00388
    25.9600        0.01541
    25.9800        0.01622
    26.0000        0.01377
    26.0200        0.01737
    26.0400        0.00096
    26.0600        0.03984
    26.0800        0.09445
    26.1000        0.11705
    26.1200        0.07246
    26.1400        0.04686
    26.1600        0.04247
    26.1800        0.02207
    26.2000        0.02348
    26.2200        0.07508
    26.2400        0.13609
    26.2600        0.18769
    26.2800        0.18730
    26.3000        0.16090
    26.3200        0.12931
    26.3400        0.11031
    26.3600        0.08572
    26.3800        0.07812
    26.4000        0.08193
    26.4200        0.09453
    26.4400        0.10154
    26.4600        0.08793
    26.4800        0.08593
    26.5000        0.07713
    26.5200        0.05793
    26.5400        0.02612
    26.5600        0.02492
    26.5800        0.04832
    26.6000        0.09572
    26.6200        0.12852
    26.6400        0.14292
    26.6600        0.13412
    26.6800        0.14092
    26.7000        0.14272
    26.7200        0.16291
    26.7400        0.15711
    26.7600        0.15751
    26.7800        0.18431
    26.8000        0.20091
    26.8200        0.19631
    26.8400        0.16331
    26.8600        0.14911
    26.8800        0.11831
    26.9000        0.09571
    26.9200        0.05201
    26.9400        0.00802
    26.9600        0.00523
    26.9800        0.00704
    27.0000        0.01545
    27.0200        0.01646
    27.0400        0.03548
    27.0600        0.05929
    27.0800        0.08390
    27.1000        0.12811
    27.1200        0.15132
    27.1400        0.16393
    27.1600        0.20375
    27.1800        0.22676
    27.2000        0.20897
    27.2200        0.14638
    27.2400        0.07479
    27.2600        0.03180
    27.2800        0.01159
    27.3000        0.03857
    27.3200        0.05816
    27.3400        0.05675
    27.3600        0.05134
    27.3800        0.04973
    27.4000        0.04072
    27.4200        0.01774
    27.4400        0.02064
    27.4600        0.04882
    27.4800        0.06440
    27.5000        0.07038
    27.5200        0.10156
    27.5400        0.11814
    27.5600        0.09793
    27.5800        0.12811
    27.6000        0.15089
    27.6200        0.14987
    27.6400        0.16045
    27.6600        0.15223
    27.6800        0.10801
    27.7000        0.07399
    27.7200        0.05357
    27.7400        0.04315
    27.7600        0.03873
    27.7800        0.04491
    27.8000        0.04549
    27.8200        0.05347
    27.8400        0.04045
    27.8600        0.04063
    27.8800        0.06761
    27.9000        0.08739
    27.9200        0.11637
    27.9400        0.11895
    27.9600        0.09973
    27.9800        0.08051
    28.0000        0.05869
    28.0200        0.06707
    28.0400        0.07185
    28.0600        0.05503
    28.0800        0.05381
    28.1000        0.07579
    28.1200        0.09357
    28.1400        0.13215
    28.1600        0.14633
    28.1800        0.16271
    28.2000        0.15569
    28.2200        0.17467
    28.2400        0.19765
    28.2600        0.21844
    28.2800        0.20021
    28.3000        0.19220
    28.3200        0.17298
    28.3400        0.15316
    28.3600        0.14534
    28.3800        0.10572
    28.4000        0.06090
    28.4200        0.03608
    28.4400        0.03286
    28.4600        0.05204
    28.4800        0.05242
    28.5000        0.04900
    28.5200        0.03358
    28.5400        0.04336
    28.5600        0.06674
    28.5800        0.04012
    28.6000        0.00790
    28.6200        0.02452
    28.6400        0.00926
    28.6600        0.07344
    28.6800        0.08062
    28.7000        0.06660
    28.7200        0.04878
    28.7400        0.07456
    28.7600        0.09714
    28.7800        0.11252
    28.8000        0.12370
    28.8200        0.11828
    28.8400        0.08686
    28.8600        0.08804
    28.8800        0.05962
    28.9000        0.04860
    28.9200        0.02238
    28.9400        0.00264
    28.9600        0.00434
    28.9800        0.01172
    29.0000        0.01510
    29.0200        0.02568
    29.0400        0.00586
    29.0600        0.02445
    29.0800        0.03563
    29.1000        0.04101
    29.1200        0.05499
    29.1400        0.03337
    29.1600        0.01935
    29.1800        0.02033
    29.2000        0.01411
    29.2200        0.00489
    29.2400        0.01153
    29.2600        0.00295
    29.2800        0.01803
    29.3000        0.04601
    29.3200        0.05739
    29.3400        0.05437
    29.3600        0.07775
    29.3800        0.10493
    29.4000        0.10231
    29.4200        0.09229
    29.4400        0.09427
    29.4600        0.10645
    29.4800        0.10883
    29.5000        0.09581
    29.5200        0.08639
    29.5400        0.06977
    29.5600        0.05095
    29.5800        0.04793
    29.6000        0.06951
    29.6200        0.07429
    29.6400        0.07087
    29.6600        0.07945
    29.6800        0.08603
    29.7000        0.08821
    29.7200        0.10259
    29.7400        0.10177
    29.7600        0.11515
    29.7800        0.09853
    29.8000        0.05592
    29.8200        0.01190
    29.8400        0.01832
    29.8600        0.00014
    29.8800        0.01564
    29.9000        0.01582
    29.9200        0.00020
    29.9400        0.00622
    29.9600        0.00786
    29.9800        0.00434
    30.0000        0.00226
